# Rescaled matter transfer functions [-T_i(k)/k^2] for adiabatic (AD) mode (normalized to initial curvature=1) at redshift z=0
# for k=1.05232e-05 to 105.341 h/Mpc,
# number of wavenumbers equal to 132
# T_i   stands for (delta rho_i/rho_i)(k,z) with above normalization 
# The rescaling factor [-1/k^2] with k in 1/Mpc is here to match the CMBFAST/CAMB output convention
#
#
#    1:k (h/Mpc)              2:-T_cdm/k2              3:-T_b/k2                4:-T_g/k2                5:-T_ur/k2               6:-T_ncdm/k2             7:-T_tot/k2          
       1.052322863567e-05       1.984490079602e+07       1.984490033929e+07       2.644601749517e+07       2.644572050411e+07       0.000000000000e+00       6.302627115306e+06 
       1.324795994356e-05       1.984488120698e+07       1.984488048314e+07       2.643789357904e+07       2.643742298999e+07       0.000000000000e+00       6.302620122199e+06 
       1.667819342738e-05       1.984485146460e+07       1.984485031749e+07       2.642502447436e+07       2.642427892299e+07       0.000000000000e+00       6.302609453512e+06 
       2.099660152855e-05       1.984480532319e+07       1.984480350542e+07       2.640464143687e+07       2.640346053303e+07       0.000000000000e+00       6.302592862573e+06 
       2.643315522561e-05       1.984472949494e+07       1.984472661462e+07       2.637236252195e+07       2.637049269463e+07       0.000000000000e+00       6.302565713315e+06 
       3.327737082742e-05       1.984460941164e+07       1.984460484823e+07       2.632127834250e+07       2.631831932218e+07       0.000000000000e+00       6.302522722300e+06 
       4.189372777233e-05       1.984441985083e+07       1.984441262240e+07       2.624050273094e+07       2.623582419055e+07       0.000000000000e+00       6.302454844681e+06 
       5.274107848738e-05       1.984412013941e+07       1.984410869339e+07       2.611294981427e+07       2.610556288880e+07       0.000000000000e+00       6.302347539570e+06 
       6.639708395319e-05       1.984364547346e+07       1.984362735852e+07       2.591196028867e+07       2.590032298535e+07       0.000000000000e+00       6.302177692695e+06 
       8.358897625770e-05       1.984289505192e+07       1.984286640610e+07       2.559632976765e+07       2.557806090550e+07       0.000000000000e+00       6.301909374976e+06 
       1.052322863567e-04       1.984170996507e+07       1.984166472568e+07       2.510333726136e+07       2.507481792923e+07       0.000000000000e+00       6.301486157396e+06 
       1.324795994356e-04       1.983984241840e+07       1.983977112136e+07       2.433990102647e+07       2.429577458657e+07       0.000000000000e+00       6.300820495141e+06 
       1.667819342738e-04       1.983690812798e+07       1.983679613123e+07       2.317372828969e+07       2.310641593609e+07       0.000000000000e+00       6.299777764915e+06 
       2.099660152855e-04       1.983232118545e+07       1.983214615933e+07       2.143091553061e+07       2.133053890710e+07       0.000000000000e+00       6.298155343091e+06 
       2.643315522561e-04       1.982520503179e+07       1.982493370683e+07       1.891634703321e+07       1.877203134121e+07       0.000000000000e+00       6.295656252791e+06 
       3.327737082742e-04       1.981428617367e+07       1.981387082088e+07       1.548942331013e+07       1.529387320762e+07       0.000000000000e+00       6.291862565857e+06 
       4.189372777233e-04       1.979779931481e+07       1.979717571446e+07       1.123751751374e+07       1.099723831659e+07       0.000000000000e+00       6.286221680941e+06 
       5.274107848738e-04       1.977342353976e+07       1.977251447345e+07       6.734459274558e+06       6.484484927719e+06       0.000000000000e+00       6.278050511481e+06 
       6.639708395319e-04       1.973824986067e+07       1.973698112175e+07       3.124951961132e+06       2.932650225700e+06       0.000000000000e+00       6.266533223699e+06 
       8.358897625770e-04       1.968858310588e+07       1.968691803450e+07       1.403392418280e+06       1.326465176528e+06       0.000000000000e+00       6.250590539161e+06 
       1.052322863567e-03       1.961926864008e+07       1.961725245360e+07       9.641492553814e+05       9.705564917279e+05       0.000000000000e+00       6.228530385904e+06 
       1.324795994356e-03       1.952299013395e+07       1.952076231164e+07       4.067364239094e+05       4.078236627458e+05       0.000000000000e+00       6.197902451681e+06 
       1.667819342738e-03       1.939046318584e+07       1.938817602232e+07       2.243117865211e+05       2.112905599613e+05       0.000000000000e+00       6.155808659604e+06 
       2.099660152855e-03       1.921100226688e+07       1.920865444320e+07       6.318656475862e+04       6.225573738931e+04       0.000000000000e+00       6.098817627925e+06 
       2.643315522561e-03       1.897148361433e+07       1.896886694144e+07       3.420519867662e+04       2.902072440217e+04       0.000000000000e+00       6.022761488823e+06 
       3.327737082742e-03       1.865690212714e+07       1.865383858897e+07       8.896046753410e+03       1.304269614138e+04       0.000000000000e+00       5.922867248823e+06 
       4.189372777233e-03       1.825072114662e+07       1.824704125557e+07      -3.631087566202e+03       3.555540810879e+04       0.000000000000e+00       5.793886729822e+06 
       5.274107848738e-03       1.773531072295e+07       1.773061808787e+07      -1.473512520227e+04      -1.503478557802e+04       0.000000000000e+00       5.630206965663e+06 
       6.639708395319e-03       1.709277271501e+07       1.708654960102e+07      -8.960670278710e+03      -9.142891122548e+03       0.000000000000e+00       5.426145645838e+06 
       8.358897625770e-03       1.630536748155e+07       1.629682057783e+07      -5.392379340925e+03      -5.502051908364e+03       0.000000000000e+00       5.176054178061e+06 
       1.052322863567e-02       1.535514069135e+07       1.534315054641e+07      -3.204014087827e+03      -3.269177437418e+03       0.000000000000e+00       4.874216689402e+06 
       1.324795994356e-02       1.422549246513e+07       1.420856856015e+07      -1.872758453347e+03      -1.910846378131e+03       0.000000000000e+00       4.515345075894e+06 
       1.667819342735e-02       1.290321119945e+07       1.287959500360e+07      -1.071896822112e+03      -1.093692956074e+03       0.000000000000e+00       4.095231942167e+06 
       2.099660136434e-02       1.138841282943e+07       1.135653690595e+07      -5.969300613831e+02      -6.090662250645e+02       0.000000000000e+00       3.613923476065e+06 
       2.643302962105e-02       9.716517300918e+06       9.676154722474e+06      -3.212009987776e+02      -3.277326700469e+02       0.000000000000e+00       3.082730156815e+06 
       3.325991725659e-02       7.997251740200e+06       7.951492794528e+06      -1.669252331840e+02      -1.703198447380e+02       0.000000000000e+00       2.536649647635e+06 
       4.131084427683e-02       6.505159895437e+06       6.461580723387e+06      -8.799341337440e+01      -8.978298468506e+01       0.000000000000e+00       2.063061284856e+06 
       4.811042795111e-02       5.635010746789e+06       5.598699764444e+06      -5.619245911744e+01      -5.733546607652e+01       0.000000000000e+00       1.787170696093e+06 
       5.303957649822e-02       5.171780699208e+06       5.142068296432e+06      -4.245236292520e+01      -4.331561945739e+01       0.000000000000e+00       1.640432115124e+06 
       5.710244131153e-02       4.863049108936e+06       4.838650315015e+06      -3.444838607237e+01      -3.514880636439e+01       0.000000000000e+00       1.542679280996e+06 
       6.072908903941e-02       4.624504851152e+06       4.604264680550e+06      -2.895625646133e+01      -2.954518711892e+01       0.000000000000e+00       1.467152266319e+06 
       6.411105505824e-02       4.421459910959e+06       4.404345363286e+06      -2.484601007274e+01      -2.535129264276e+01       0.000000000000e+00       1.402844625897e+06 
       6.734963984708e-02       4.237016955727e+06       4.222098758272e+06      -2.157409246787e+01      -2.201287138242e+01       0.000000000000e+00       1.344397037042e+06 
       7.050555095338e-02       4.061792523278e+06       4.048241878374e+06      -1.887242697701e+01      -1.925625834874e+01       0.000000000000e+00       1.288835450013e+06 
       7.361864866039e-02       3.890565498925e+06       3.877664682108e+06      -1.658722958859e+01      -1.692445865521e+01       0.000000000000e+00       1.234507756925e+06 
       7.671701597336e-02       3.720998072489e+06       3.708153743670e+06      -1.460869725501e+01      -1.490569580965e+01       0.000000000000e+00       1.180677866252e+06 
       7.982159927792e-02       3.552373158080e+06       3.539131558723e+06      -1.287668134039e+01      -1.313856997383e+01       0.000000000000e+00       1.127124963234e+06 
       8.294878610250e-02       3.385056155067e+06       3.371115459967e+06      -1.136207856622e+01      -1.159315567420e+01       0.000000000000e+00       1.073972495440e+06 
       8.611193210362e-02       3.220604347018e+06       3.205821623384e+06      -1.003358348595e+01      -1.023757083876e+01       0.000000000000e+00       1.021722639499e+06 
       8.932231340541e-02       3.061241156839e+06       3.045630634881e+06      -8.862980935013e+00      -9.043171409298e+00       0.000000000000e+00       9.710889669031e+05 
       9.258974600009e-02       2.909316174539e+06       2.893038470091e+06      -7.837914822577e+00      -7.997274982440e+00       0.000000000000e+00       9.228245754390e+05 
       9.592300277331e-02       2.767221966436e+06       2.750560940714e+06      -6.944824429968e+00      -7.086038422035e+00       0.000000000000e+00       8.776950728357e+05 
       9.933010241476e-02       2.636960877613e+06       2.620290278606e+06      -6.170403620171e+00      -6.295888807016e+00       0.000000000000e+00       8.363405486661e+05 
       1.028185143334e-01       2.519849324459e+06       2.503589101400e+06      -5.502918626032e+00      -5.614829715217e+00       0.000000000000e+00       7.991811899734e+05 
       1.063953067895e-01       2.416321510322e+06       2.400887403552e+06      -4.928216980056e+00      -5.028437735759e+00       0.000000000000e+00       7.663546373032e+05 
       1.100672555870e-01       2.325692146537e+06       2.311442819054e+06      -4.433249601332e+00      -4.523388478167e+00       0.000000000000e+00       7.376405351807e+05 
       1.138409247154e-01       2.246215295732e+06       2.233404054689e+06      -4.002263928817e+00      -4.083651098646e+00       0.000000000000e+00       7.124794380100e+05 
       1.177227266242e-01       2.175032341474e+06       2.163769093859e+06      -3.624332777505e+00      -3.698035734150e+00       0.000000000000e+00       6.899567934002e+05 
       1.217189674619e-01       2.108682774682e+06       2.098914373298e+06      -3.288171460618e+00      -3.355019467239e+00       0.000000000000e+00       6.689660028329e+05 
       1.258358810800e-01       2.043450979886e+06       2.034964947961e+06      -2.981053894669e+00      -3.041668384199e+00       0.000000000000e+00       6.483196615206e+05 
       1.300796545996e-01       1.975890511638e+06       1.968344747198e+06      -2.696976497922e+00      -2.751826843820e+00       0.000000000000e+00       6.269172736020e+05 
       1.344564476678e-01       1.903446740962e+06       1.896424141292e+06      -2.432474774751e+00      -2.481932548113e+00       0.000000000000e+00       6.039441450006e+05 
       1.389724070894e-01       1.825128477295e+06       1.818208818518e+06      -2.183840330530e+00      -2.228231580223e+00       0.000000000000e+00       5.790854490139e+05 
       1.436336782208e-01       1.741659969303e+06       1.734498090025e+06      -1.950471225633e+00      -1.990124649708e+00       0.000000000000e+00       5.525747909600e+05 
       1.484464143208e-01       1.655331574721e+06       1.647724843451e+06      -1.735356884350e+00      -1.770637688889e+00       0.000000000000e+00       5.251462752094e+05 
       1.534167849263e-01       1.569714464420e+06       1.561643949051e+06      -1.540535913590e+00      -1.571856271279e+00       0.000000000000e+00       4.979426436581e+05 
       1.585509842383e-01       1.488828424893e+06       1.480459298078e+06      -1.367857738258e+00      -1.395668985813e+00       0.000000000000e+00       4.722490802973e+05 
       1.638552404579e-01       1.416112781047e+06       1.407749788640e+06      -1.218089909737e+00      -1.242856659801e+00       0.000000000000e+00       4.491643078343e+05 
       1.693358269748e-01       1.353461495545e+06       1.345466348595e+06      -1.089995751566e+00      -1.112159224301e+00       0.000000000000e+00       4.292923946100e+05 
       1.749990762963e-01       1.300600717176e+06       1.293288348855e+06      -9.809101856103e-01      -1.000853133438e+00       0.000000000000e+00       4.125441090360e+05 
       1.808513975878e-01       1.255058968932e+06       1.248604924822e+06      -8.863202979044e-01      -9.043409656285e-01       0.000000000000e+00       3.981280006723e+05 
       1.868992986880e-01       1.212987908395e+06       1.207375862368e+06      -8.019604816537e-01      -8.182692192460e-01       0.000000000000e+00       3.848129334217e+05 
       1.931494134598e-01       1.170048041548e+06       1.165077614055e+06      -7.244938140189e-01      -7.392247946445e-01       0.000000000000e+00       3.712122280960e+05 
       1.996085353358e-01       1.122893415952e+06       1.118252290149e+06      -6.511331082207e-01      -6.643707158262e-01       0.000000000000e+00       3.562581590272e+05 
       2.062836579371e-01       1.070816857262e+06       1.066197453799e+06      -5.814408397029e-01      -5.932605102581e-01       0.000000000000e+00       3.397264513265e+05 
       2.131820236713e-01       1.016002848908e+06       1.011216639334e+06      -5.164494552334e-01      -5.269491925503e-01       0.000000000000e+00       3.223164470290e+05 
       2.203111812778e-01       9.622723753029e+05       9.573151889355e+05      -4.579599889107e-01      -4.672705762496e-01       0.000000000000e+00       3.052502287233e+05 
       2.276790533848e-01       9.133066863999e+05       9.083422665670e+05      -4.068021118890e-01      -4.150755333690e-01       0.000000000000e+00       2.897047117570e+05 
       2.352940152909e-01       8.711477620603e+05       8.664166827684e+05      -3.634458688686e-01      -3.708351254412e-01       0.000000000000e+00       2.763319288857e+05 
       2.431649864038e-01       8.355153349845e+05       8.312082659559e+05      -3.263324772774e-01      -3.329683125881e-01       0.000000000000e+00       2.650404584222e+05 
       2.513015360745e-01       8.034907454843e+05       7.996523827378e+05      -2.938534514223e-01      -2.998287871230e-01       0.000000000000e+00       2.548965599197e+05 
       2.597140059874e-01       7.713035779657e+05       7.678191802227e+05      -2.641853517630e-01      -2.695561235173e-01       0.000000000000e+00       2.446954258889e+05 
       2.684136518347e-01       7.366688204443e+05       7.333425998270e+05      -2.362254888189e-01      -2.410279525926e-01       0.000000000000e+00       2.337076614795e+05 
       2.774128077603e-01       6.998264956311e+05       6.965048119578e+05      -2.100544557465e-01      -2.143253220867e-01       0.000000000000e+00       2.220115318710e+05 
       2.867250780638e-01       6.632955125951e+05       6.599550737176e+05      -1.863851828037e-01      -1.901743084990e-01       0.000000000000e+00       2.104131028879e+05 
       2.963655619767e-01       6.301536479650e+05       6.268948807025e+05      -1.657122206808e-01      -1.690815099732e-01       0.000000000000e+00       1.998955395337e+05 
       3.063511190840e-01       6.013729319822e+05       5.983255570326e+05      -1.480219057029e-01      -1.510312023616e-01       0.000000000000e+00       1.907688680183e+05 
       3.167006852993e-01       5.754447251983e+05       5.726604271612e+05      -1.325352897326e-01      -1.352298101816e-01       0.000000000000e+00       1.825503163826e+05 
       3.274356524458e-01       5.498575695432e+05       5.472768045256e+05      -1.184767502705e-01      -1.208854608907e-01       0.000000000000e+00       1.744371210452e+05 
       3.385803287497e-01       5.231108555031e+05       5.206280643414e+05      -1.054063476667e-01      -1.075494811709e-01       0.000000000000e+00       1.659506281890e+05 
       3.501625034006e-01       4.960989274884e+05       4.936609606594e+05      -9.346236949182e-02      -9.536256283340e-02       0.000000000000e+00       1.573773336305e+05 
       3.622141464536e-01       4.707050503486e+05       4.683470648529e+05      -8.287355525578e-02      -8.455847633310e-02       0.000000000000e+00       1.493194450523e+05 
       3.747722868132e-01       4.478488131264e+05       4.456355717965e+05      -7.363497386077e-02      -7.513242185299e-02       0.000000000000e+00       1.420703554144e+05 
       3.878801274623e-01       4.264184090633e+05       4.243627765725e+05      -6.545875107244e-02      -6.678984310330e-02       0.000000000000e+00       1.352745560769e+05 
       4.015884810507e-01       4.049824792586e+05       4.030375462649e+05      -5.801618636442e-02      -5.919557433179e-02       0.000000000000e+00       1.284747041349e+05 
       4.159576445139e-01       3.834759884789e+05       3.816024315999e+05      -5.119743912653e-02      -5.223834319981e-02       0.000000000000e+00       1.216505244968e+05 
       4.310598852886e-01       3.629269521787e+05       3.611375732109e+05      -4.512321048355e-02      -4.604052124923e-02       0.000000000000e+00       1.151309356569e+05 
       4.469827951756e-01       3.437057805007e+05       3.420283233651e+05      -3.973917858078e-02      -4.054711446816e-02       0.000000000000e+00       1.090342640108e+05 
       4.638339004445e-01       3.251437319946e+05       3.235700738517e+05      -3.490808051513e-02      -3.561785604410e-02       0.000000000000e+00       1.031464465564e+05 
       4.817471329638e-01       3.066375917013e+05       3.051430878521e+05      -3.052088731757e-02      -3.114141163962e-02       0.000000000000e+00       9.727517083317e+04 
       5.008921305886e-01       2.886277938123e+05       2.872150570208e+05      -2.656601270194e-02      -2.710627781000e-02       0.000000000000e+00       9.156159720305e+04 
       5.214879671174e-01       2.713725279714e+05       2.700523637680e+05      -2.304388795330e-02      -2.351252503308e-02       0.000000000000e+00       8.608809467401e+04 
       5.438240542354e-01       2.542867929036e+05       2.530491345454e+05      -1.986172666979e-02      -2.026553852583e-02       0.000000000000e+00       8.066791994251e+04 
       5.682931129480e-01       2.373825909428e+05       2.362241711409e+05      -1.697389897949e-02      -1.731909220823e-02       0.000000000000e+00       7.530521653797e+04 
       5.954453838500e-01       2.207326313249e+05       2.196583518452e+05      -1.437677335646e-02      -1.466914942939e-02       0.000000000000e+00       7.002346774564e+04 
       6.260822008501e-01       2.039853949484e+05       2.029912508149e+05      -1.201751551581e-02      -1.226191201619e-02       0.000000000000e+00       6.471064022488e+04 
       6.614270481980e-01       1.870749414877e+05       1.861640649392e+05      -9.874855470870e-03      -1.007567718563e-02       0.000000000000e+00       5.934614955744e+04 
       7.034600463648e-01       1.696595189289e+05       1.688330785356e+05      -7.917329009180e-03      -8.078340971807e-03       0.000000000000e+00       5.382140334407e+04 
       7.556241967480e-01       1.513860191535e+05       1.506488096231e+05      -6.122859601912e-03      -6.247377835409e-03       0.000000000000e+00       4.802447783207e+04 
